# time [ps]        dipole moment [a.u.]
#               x           y            z
0.00000     -0.02668     0.05531     -0.09989
0.00010     -0.02641     0.05757     -0.10036
0.00020     -0.02613     0.05985     -0.10079
0.00030     -0.02582     0.06215     -0.10120
0.00040     -0.02548     0.06446     -0.10158
0.00050     -0.02513     0.06677     -0.10193
0.00060     -0.02476     0.06909     -0.10224
0.00070     -0.02436     0.07139     -0.10252
0.00080     -0.02395     0.07368     -0.10277
0.00090     -0.02352     0.07596     -0.10297
0.00100     -0.02306     0.07821     -0.10315
0.00110     -0.02260     0.08044     -0.10328
0.00120     -0.02211     0.08263     -0.10337
0.00130     -0.02161     0.08478     -0.10343
0.00140     -0.02110     0.08689     -0.10344
0.00150     -0.02058     0.08895     -0.10342
0.00160     -0.02004     0.09096     -0.10335
0.00170     -0.01949     0.09291     -0.10325
0.00180     -0.01894     0.09481     -0.10310
0.00190     -0.01838     0.09663     -0.10292
0.00200     -0.01782     0.09839     -0.10270
0.00210     -0.01726     0.10008     -0.10243
0.00220     -0.01669     0.10169     -0.10213
0.00230     -0.01613     0.10322     -0.10179
0.00240     -0.01558     0.10467     -0.10141
0.00250     -0.01503     0.10604     -0.10100
0.00260     -0.01450     0.10731     -0.10055
0.00270     -0.01398     0.10850     -0.10007
0.00280     -0.01348     0.10959     -0.09956
0.00290     -0.01303     0.11062     -0.09904
0.00300     -0.01257     0.11152     -0.09847
0.00310     -0.01213     0.11232     -0.09786
0.00320     -0.01173     0.11303     -0.09722
0.00330     -0.01135     0.11363     -0.09656
0.00340     -0.01101     0.11412     -0.09586
0.00350     -0.01070     0.11450     -0.09515
0.00360     -0.01043     0.11478     -0.09442
0.00370     -0.01020     0.11495     -0.09367
0.00380     -0.01001     0.11502     -0.09291
0.00390     -0.00987     0.11498     -0.09212
0.00400     -0.00977     0.11484     -0.09133
0.00410     -0.00973     0.11459     -0.09052
0.00420     -0.00974     0.11423     -0.08970
0.00430     -0.00979     0.11377     -0.08888
0.00440     -0.00989     0.11321     -0.08805
0.00450     -0.01005     0.11254     -0.08722
0.00460     -0.01025     0.11177     -0.08638
0.00470     -0.01051     0.11090     -0.08555
0.00480     -0.01074     0.10999     -0.08475
0.00490     -0.01117     0.10887     -0.08389
0.00500     -0.01158     0.10771     -0.08307
0.00510     -0.01203     0.10646     -0.08226
0.00520     -0.01242     0.10519     -0.08149
0.00530     -0.01294     0.10377     -0.08070
0.00540     -0.01352     0.10227     -0.07993
0.00550     -0.01416     0.10065     -0.07916
0.00560     -0.01480     0.09903     -0.07842
0.00570     -0.01552     0.09728     -0.07769
0.00580     -0.01624     0.09550     -0.07698
0.00590     -0.01699     0.09366     -0.07629
0.00600     -0.01778     0.09175     -0.07563
0.00610     -0.01860     0.08979     -0.07498
0.00620     -0.01944     0.08777     -0.07435
0.00630     -0.02030     0.08572     -0.07375
0.00640     -0.02118     0.08363     -0.07318
0.00650     -0.02207     0.08150     -0.07262
0.00660     -0.02298     0.07934     -0.07209
0.00670     -0.02389     0.07716     -0.07159
0.00680     -0.02482     0.07496     -0.07111
0.00690     -0.02575     0.07275     -0.07066
0.00700     -0.02668     0.07052     -0.07023
0.00710     -0.02761     0.06829     -0.06983
0.00720     -0.02854     0.06607     -0.06945
0.00730     -0.02946     0.06385     -0.06910
0.00740     -0.03037     0.06164     -0.06878
0.00750     -0.03128     0.05944     -0.06847
0.00760     -0.03216     0.05727     -0.06820
0.00770     -0.03304     0.05513     -0.06794
0.00780     -0.03389     0.05301     -0.06771
0.00790     -0.03472     0.05093     -0.06750
0.00800     -0.03553     0.04885     -0.06729
0.00810     -0.03632     0.04685     -0.06713
0.00820     -0.03707     0.04490     -0.06700
0.00830     -0.03780     0.04300     -0.06688
0.00840     -0.03849     0.04115     -0.06678
0.00850     -0.03915     0.03937     -0.06670
0.00860     -0.03977     0.03765     -0.06664
0.00870     -0.04036     0.03599     -0.06659
0.00880     -0.04090     0.03441     -0.06655
0.00890     -0.04140     0.03289     -0.06653
0.00900     -0.04186     0.03144     -0.06651
0.00910     -0.04227     0.03007     -0.06651
0.00920     -0.04264     0.02878     -0.06652
0.00930     -0.04295     0.02756     -0.06653
0.00940     -0.04322     0.02642     -0.06655
0.00950     -0.04343     0.02537     -0.06656
0.00960     -0.04360     0.02439     -0.06658
0.00970     -0.04371     0.02349     -0.06660
0.00980     -0.04377     0.02266     -0.06662
0.00990     -0.04378     0.02192     -0.06664
0.01000     -0.04374     0.02125     -0.06665
0.01010     -0.04365     0.02066     -0.06666
0.01020     -0.04350     0.02014     -0.06665
0.01030     -0.04331     0.01965     -0.06666
0.01040     -0.04305     0.01927     -0.06663
0.01050     -0.04273     0.01897     -0.06660
0.01060     -0.04236     0.01873     -0.06655
0.01070     -0.04193     0.01856     -0.06648
0.01080     -0.04146     0.01845     -0.06640
0.01090     -0.04093     0.01841     -0.06630
0.01100     -0.04035     0.01841     -0.06618
0.01110     -0.03971     0.01848     -0.06604
0.01120     -0.03903     0.01859     -0.06588
0.01130     -0.03830     0.01875     -0.06570
0.01140     -0.03752     0.01895     -0.06549
0.01150     -0.03669     0.01920     -0.06527
0.01160     -0.03582     0.01948     -0.06502
0.01170     -0.03490     0.01980     -0.06475
0.01180     -0.03394     0.02015     -0.06445
0.01190     -0.03294     0.02053     -0.06413
0.01200     -0.03189     0.02093     -0.06379
0.01210     -0.03081     0.02134     -0.06342
0.01220     -0.02969     0.02178     -0.06303
0.01230     -0.02853     0.02222     -0.06261
0.01240     -0.02734     0.02268     -0.06218
0.01250     -0.02612     0.02313     -0.06172
0.01260     -0.02486     0.02359     -0.06123
0.01270     -0.02358     0.02404     -0.06073
0.01280     -0.02228     0.02448     -0.06021
0.01290     -0.02095     0.02491     -0.05967
0.01300     -0.01960     0.02532     -0.05912
0.01310     -0.01824     0.02571     -0.05855
0.01320     -0.01686     0.02608     -0.05796
0.01330     -0.01546     0.02642     -0.05736
0.01340     -0.01406     0.02672     -0.05676
0.01350     -0.01266     0.02698     -0.05614
0.01360     -0.01125     0.02720     -0.05552
0.01370     -0.00985     0.02738     -0.05489
0.01380     -0.00844     0.02751     -0.05427
0.01390     -0.00705     0.02758     -0.05364
0.01400     -0.00567     0.02760     -0.05302
0.01410     -0.00430     0.02755     -0.05240
0.01420     -0.00286     0.02734     -0.05157
0.01430     -0.00161     0.02727     -0.05118
0.01440     -0.00029     0.02706     -0.05057
0.01450     0.00099     0.02674     -0.04999
0.01460     0.00225     0.02633     -0.04942
0.01470     0.00348     0.02585     -0.04887
0.01480     0.00466     0.02529     -0.04833
0.01490     0.00582     0.02464     -0.04782
0.01500     0.00693     0.02391     -0.04734
0.01510     0.00797     0.02307     -0.04691
0.01520     0.00899     0.02216     -0.04648
0.01530     0.00997     0.02116     -0.04606
0.01540     0.01091     0.02007     -0.04568
0.01550     0.01179     0.01889     -0.04532
0.01560     0.01262     0.01762     -0.04500
0.01570     0.01339     0.01625     -0.04471
0.01580     0.01412     0.01480     -0.04445
0.01590     0.01478     0.01327     -0.04422
0.01600     0.01540     0.01165     -0.04403
0.01610     0.01595     0.00994     -0.04387
0.01620     0.01645     0.00816     -0.04374
0.01630     0.01689     0.00630     -0.04365
0.01640     0.01727     0.00436     -0.04358
0.01650     0.01760     0.00235     -0.04355
0.01660     0.01786     0.00028     -0.04355
0.01670     0.01807     -0.00185     -0.04357
0.01680     0.01822     -0.00405     -0.04363
0.01690     0.01832     -0.00629     -0.04371
0.01700     0.01836     -0.00858     -0.04382
0.01710     0.01834     -0.01090     -0.04395
0.01720     0.01827     -0.01327     -0.04411
0.01730     0.01814     -0.01565     -0.04429
0.01740     0.01796     -0.01806     -0.04450
0.01750     0.01772     -0.02048     -0.04472
0.01760     0.01744     -0.02291     -0.04496
0.01770     0.01710     -0.02533     -0.04522
0.01780     0.01672     -0.02775     -0.04550
0.01790     0.01628     -0.03014     -0.04580
0.01800     0.01580     -0.03251     -0.04611
0.01810     0.01528     -0.03484     -0.04643
0.01820     0.01471     -0.03714     -0.04677
0.01830     0.01410     -0.03938     -0.04713
0.01840     0.01345     -0.04156     -0.04749
0.01850     0.01277     -0.04368     -0.04787
0.01860     0.01205     -0.04573     -0.04826
0.01870     0.01130     -0.04769     -0.04866
0.01880     0.01052     -0.04957     -0.04906
0.01890     0.00971     -0.05135     -0.04948
0.01900     0.00887     -0.05304     -0.04991
0.01910     0.00801     -0.05462     -0.05035
0.01920     0.00713     -0.05608     -0.05079
0.01930     0.00623     -0.05743     -0.05125
0.01940     0.00532     -0.05866     -0.05171
0.01950     0.00439     -0.05977     -0.05217
0.01960     0.00340     -0.06079     -0.05262
0.01970     0.00245     -0.06164     -0.05310
0.01980     0.00149     -0.06235     -0.05359
0.01990     0.00053     -0.06293     -0.05408
0.02000     -0.00044     -0.06337     -0.05457
0.02010     -0.00140     -0.06368     -0.05507
0.02020     -0.00236     -0.06385     -0.05558
0.02030     -0.00331     -0.06399     -0.05600
0.02040     -0.00427     -0.06387     -0.05652
0.02050     -0.00512     -0.06351     -0.05712
0.02060     -0.00616     -0.06314     -0.05762
0.02070     -0.00709     -0.06262     -0.05814
0.02080     -0.00801     -0.06197     -0.05865
0.02090     -0.00891     -0.06120     -0.05917
0.02100     -0.00980     -0.06029     -0.05968
0.02110     -0.01067     -0.05927     -0.06019
0.02120     -0.01152     -0.05821     -0.06068
0.02130     -0.01235     -0.05695     -0.06119
0.02140     -0.01317     -0.05558     -0.06170
0.02150     -0.01396     -0.05411     -0.06221
0.02160     -0.01474     -0.05253     -0.06271
0.02170     -0.01549     -0.05087     -0.06321
0.02180     -0.01622     -0.04911     -0.06370
0.02190     -0.01693     -0.04728     -0.06419
0.02200     -0.01762     -0.04537     -0.06467
0.02210     -0.01830     -0.04339     -0.06515
0.02220     -0.01893     -0.04119     -0.06561
0.02230     -0.01956     -0.03910     -0.06607
0.02240     -0.02016     -0.03692     -0.06653
0.02250     -0.02074     -0.03471     -0.06697
0.02260     -0.02130     -0.03244     -0.06742
0.02270     -0.02183     -0.03015     -0.06786
0.02280     -0.02233     -0.02782     -0.06830
0.02290     -0.02281     -0.02547     -0.06873
0.02300     -0.02327     -0.02310     -0.06916
0.02310     -0.02370     -0.02071     -0.06959
0.02320     -0.02411     -0.01832     -0.07002
0.02330     -0.02450     -0.01593     -0.07045
0.02340     -0.02487     -0.01355     -0.07087
0.02350     -0.02522     -0.01118     -0.07130
0.02360     -0.02555     -0.00882     -0.07172
0.02370     -0.02586     -0.00649     -0.07215
0.02380     -0.02616     -0.00418     -0.07258
0.02390     -0.02644     -0.00191     -0.07301
0.02400     -0.02670     0.00032     -0.07345
0.02410     -0.02696     0.00251     -0.07389
0.02420     -0.02721     0.00465     -0.07433
0.02430     -0.02744     0.00673     -0.07478
0.02440     -0.02768     0.00876     -0.07523
0.02450     -0.02790     0.01072     -0.07569
0.02460     -0.02809     0.01266     -0.07619
0.02470     -0.02832     0.01448     -0.07666
0.02480     -0.02855     0.01623     -0.07714
0.02490     -0.02879     0.01789     -0.07763
0.02500     -0.02907     0.01947     -0.07814
0.02510     -0.02932     0.02096     -0.07864
0.02520     -0.02960     0.02235     -0.07915
0.02530     -0.02986     0.02363     -0.07967
0.02540     -0.03014     0.02484     -0.08020
0.02550     -0.03045     0.02595     -0.08074
0.02560     -0.03079     0.02695     -0.08128
0.02570     -0.03114     0.02784     -0.08183
0.02580     -0.03151     0.02862     -0.08239
0.02590     -0.03191     0.02930     -0.08296
0.02600     -0.03233     0.02986     -0.08354
0.02610     -0.03278     0.03030     -0.08412
0.02620     -0.03326     0.03063     -0.08471
0.02630     -0.03377     0.03085     -0.08531
0.02640     -0.03431     0.03095     -0.08591
0.02650     -0.03487     0.03094     -0.08651
0.02660     -0.03547     0.03081     -0.08713
0.02670     -0.03610     0.03057     -0.08774
0.02680     -0.03675     0.03022     -0.08836
0.02690     -0.03732     0.02973     -0.08904
0.02700     -0.03809     0.02916     -0.08964
0.02710     -0.03878     0.02848     -0.09029
0.02720     -0.03961     0.02770     -0.09089
0.02730     -0.04037     0.02682     -0.09155
0.02740     -0.04121     0.02584     -0.09217
0.02750     -0.04207     0.02477     -0.09280
0.02760     -0.04294     0.02361     -0.09342
0.02770     -0.04386     0.02236     -0.09404
0.02780     -0.04481     0.02103     -0.09465
0.02790     -0.04578     0.01962     -0.09526
0.02800     -0.04677     0.01815     -0.09586
0.02810     -0.04779     0.01661     -0.09646
0.02820     -0.04882     0.01501     -0.09705
0.02830     -0.04987     0.01336     -0.09763
0.02840     -0.05094     0.01167     -0.09820
0.02850     -0.05203     0.00993     -0.09876
0.02860     -0.05313     0.00815     -0.09932
0.02870     -0.05424     0.00635     -0.09986
0.02880     -0.05537     0.00453     -0.10039
0.02890     -0.05650     0.00269     -0.10092
0.02900     -0.05763     0.00084     -0.10143
0.02910     -0.05878     -0.00100     -0.10193
0.02920     -0.05992     -0.00285     -0.10242
0.02930     -0.06106     -0.00469     -0.10290
0.02940     -0.06219     -0.00652     -0.10337
0.02950     -0.06332     -0.00832     -0.10384
0.02960     -0.06444     -0.01010     -0.10429
0.02970     -0.06554     -0.01184     -0.10474
0.02980     -0.06663     -0.01354     -0.10517
0.02990     -0.06770     -0.01520     -0.10560
0.03000     -0.06876     -0.01681     -0.10601
0.03010     -0.06978     -0.01836     -0.10642
0.03020     -0.07078     -0.01985     -0.10681
0.03030     -0.07171     -0.02133     -0.10722
0.03040     -0.07264     -0.02271     -0.10760
0.03050     -0.07354     -0.02402     -0.10796
0.03060     -0.07439     -0.02525     -0.10832
0.03070     -0.07519     -0.02642     -0.10862
0.03080     -0.07596     -0.02748     -0.10895
0.03090     -0.07668     -0.02845     -0.10928
0.03100     -0.07734     -0.02933     -0.10960
0.03110     -0.07797     -0.03018     -0.10995
0.03120     -0.07853     -0.03093     -0.11024
0.03130     -0.07902     -0.03160     -0.11052
0.03140     -0.07939     -0.03212     -0.11076
0.03150     -0.07974     -0.03261     -0.11102
0.03160     -0.08016     -0.03312     -0.11128
0.03170     -0.08038     -0.03344     -0.11150
0.03180     -0.08054     -0.03367     -0.11171
0.03190     -0.08062     -0.03382     -0.11190
0.03200     -0.08063     -0.03389     -0.11208
0.03210     -0.08057     -0.03389     -0.11223
0.03220     -0.08042     -0.03381     -0.11236
0.03230     -0.08020     -0.03365     -0.11247
0.03240     -0.07991     -0.03342     -0.11256
0.03250     -0.07955     -0.03314     -0.11264
0.03260     -0.07909     -0.03278     -0.11268
0.03270     -0.07856     -0.03235     -0.11270
0.03280     -0.07794     -0.03186     -0.11269
0.03290     -0.07725     -0.03132     -0.11265
0.03300     -0.07648     -0.03072     -0.11258
0.03310     -0.07563     -0.03008     -0.11247
0.03320     -0.07470     -0.02939     -0.11234
0.03330     -0.07370     -0.02866     -0.11216
0.03340     -0.07263     -0.02790     -0.11196
0.03350     -0.07148     -0.02710     -0.11171
0.03360     -0.07026     -0.02628     -0.11143
0.03370     -0.06897     -0.02543     -0.11112
0.03380     -0.06761     -0.02456     -0.11076
0.03390     -0.06619     -0.02368     -0.11036
0.03400     -0.06471     -0.02279     -0.10992
0.03410     -0.06316     -0.02190     -0.10943
0.03420     -0.06156     -0.02100     -0.10891
0.03430     -0.05991     -0.02011     -0.10833
0.03440     -0.05821     -0.01923     -0.10772
0.03450     -0.05645     -0.01836     -0.10706
0.03460     -0.05466     -0.01751     -0.10636
0.03470     -0.05282     -0.01668     -0.10561
0.03480     -0.05095     -0.01588     -0.10482
0.03490     -0.04905     -0.01511     -0.10398
0.03500     -0.04712     -0.01438     -0.10310
0.03510     -0.04516     -0.01368     -0.10218
0.03520     -0.04319     -0.01303     -0.10121
0.03530     -0.04119     -0.01243     -0.10021
0.03540     -0.03919     -0.01188     -0.09916
0.03550     -0.03718     -0.01138     -0.09807
0.03560     -0.03521     -0.01091     -0.09695
0.03570     -0.03320     -0.01054     -0.09579
0.03580     -0.03119     -0.01022     -0.09460
0.03590     -0.02919     -0.00998     -0.09337
0.03600     -0.02720     -0.00980     -0.09211
0.03610     -0.02526     -0.00973     -0.09080
0.03620     -0.02331     -0.00970     -0.08949
0.03630     -0.02138     -0.00975     -0.08816
0.03640     -0.01948     -0.00988     -0.08680
0.03650     -0.01760     -0.01009     -0.08543
0.03660     -0.01576     -0.01037     -0.08404
0.03670     -0.01395     -0.01074     -0.08263
0.03680     -0.01218     -0.01119     -0.08121
0.03690     -0.01045     -0.01173     -0.07979
0.03700     -0.00876     -0.01234     -0.07835
0.03710     -0.00704     -0.01307     -0.07693
0.03720     -0.00554     -0.01374     -0.07547
0.03730     -0.00398     -0.01462     -0.07403
0.03740     -0.00246     -0.01557     -0.07259
0.03750     -0.00099     -0.01661     -0.07114
0.03760     0.00042     -0.01773     -0.06971
0.03770     0.00178     -0.01893     -0.06828
0.03780     0.00308     -0.02018     -0.06684
0.03790     0.00432     -0.02151     -0.06541
0.03800     0.00550     -0.02291     -0.06398
0.03810     0.00662     -0.02437     -0.06257
0.03820     0.00768     -0.02588     -0.06116
0.03830     0.00868     -0.02745     -0.05976
0.03840     0.00962     -0.02907     -0.05836
0.03850     0.01050     -0.03073     -0.05698
0.03860     0.01132     -0.03244     -0.05560
0.03870     0.01207     -0.03417     -0.05423
0.03880     0.01277     -0.03594     -0.05287
0.03890     0.01340     -0.03773     -0.05151
0.03900     0.01398     -0.03954     -0.05016
0.03910     0.01449     -0.04136     -0.04881
0.03920     0.01494     -0.04318     -0.04747
0.03930     0.01533     -0.04500     -0.04613
0.03940     0.01565     -0.04682     -0.04480
0.03950     0.01592     -0.04861     -0.04347
0.03960     0.01613     -0.05039     -0.04214
0.03970     0.01628     -0.05213     -0.04081
0.03980     0.01638     -0.05384     -0.03948
0.03990     0.01642     -0.05551     -0.03815
0.04000     0.01641     -0.05713     -0.03683
0.04010     0.01634     -0.05869     -0.03550
0.04020     0.01623     -0.06018     -0.03417
0.04030     0.01606     -0.06160     -0.03283
0.04040     0.01585     -0.06295     -0.03150
0.04050     0.01560     -0.06422     -0.03016
0.04060     0.01530     -0.06539     -0.02882
0.04070     0.01497     -0.06647     -0.02747
0.04080     0.01460     -0.06745     -0.02613
0.04090     0.01419     -0.06833     -0.02477
0.04100     0.01376     -0.06910     -0.02342
0.04110     0.01330     -0.06975     -0.02206
0.04120     0.01281     -0.07029     -0.02069
0.04130     0.01231     -0.07071     -0.01932
0.04140     0.01195     -0.07108     -0.01795
0.04150     0.01142     -0.07125     -0.01658
0.04160     0.01087     -0.07131     -0.01519
0.04170     0.01031     -0.07123     -0.01380
0.04180     0.00975     -0.07103     -0.01241
0.04190     0.00919     -0.07069     -0.01101
0.04200     0.00846     -0.07001     -0.00960
0.04210     0.00806     -0.06963     -0.00819
0.04220     0.00750     -0.06891     -0.00677
0.04230     0.00695     -0.06806     -0.00534
0.04240     0.00642     -0.06708     -0.00391
0.04250     0.00589     -0.06598     -0.00248
0.04260     0.00539     -0.06476     -0.00103
0.04270     0.00490     -0.06342     0.00042
0.04280     0.00444     -0.06197     0.00188
0.04290     0.00400     -0.06041     0.00335
